

# V0=18.0, s=0.5 
#   x [ho units]    Density [ho units]
   -6.000000E+00     2.372746E-06
   -5.950000E+00     2.612899E-06
   -5.900000E+00     3.374153E-06
   -5.850000E+00     4.792238E-06
   -5.800000E+00     7.117057E-06
   -5.750000E+00     1.074679E-05
   -5.700000E+00     1.628325E-05
   -5.650000E+00     2.461260E-05
   -5.600000E+00     3.702013E-05
   -5.550000E+00     5.534903E-05
   -5.500000E+00     8.221752E-05
   -5.450000E+00     1.213115E-04
   -5.400000E+00     1.777750E-04
   -5.350000E+00     2.587239E-04
   -5.300000E+00     3.739150E-04
   -5.250000E+00     5.366059E-04
   -5.200000E+00     7.646453E-04
   -5.150000E+00     1.081836E-03
   -5.100000E+00     1.519616E-03
   -5.050000E+00     2.119089E-03
   -5.000000E+00     2.933447E-03
   -4.950000E+00     4.030792E-03
   -4.900000E+00     5.497343E-03
   -4.850000E+00     7.440995E-03
   -4.800000E+00     9.995124E-03
   -4.750000E+00     1.332249E-02
   -4.700000E+00     1.761900E-02
   -4.650000E+00     2.311702E-02
   -4.600000E+00     3.008775E-02
   -4.550000E+00     3.884229E-02
   -4.500000E+00     4.973058E-02
   -4.450000E+00     6.313765E-02
   -4.400000E+00     7.947639E-02
   -4.350000E+00     9.917608E-02
   -4.300000E+00     1.226661E-01
   -4.250000E+00     1.503541E-01
   -4.200000E+00     1.825993E-01
   -4.150000E+00     2.196794E-01
   -4.100000E+00     2.617546E-01
   -4.050000E+00     3.088270E-01
   -4.000000E+00     3.607013E-01
   -3.950000E+00     4.169463E-01
   -3.900000E+00     4.768636E-01
   -3.850000E+00     5.394668E-01
   -3.800000E+00     6.034758E-01
   -3.750000E+00     6.673302E-01
   -3.700000E+00     7.292267E-01
   -3.650000E+00     7.871809E-01
   -3.600000E+00     8.391146E-01
   -3.550000E+00     8.829654E-01
   -3.500000E+00     9.168130E-01
   -3.450000E+00     9.390138E-01
   -3.400000E+00     9.483322E-01
   -3.350000E+00     9.440553E-01
   -3.300000E+00     9.260793E-01
   -3.250000E+00     8.949562E-01
   -3.200000E+00     8.518916E-01
   -3.150000E+00     7.986943E-01
   -3.100000E+00     7.376789E-01
   -3.050000E+00     6.715331E-01
   -3.000000E+00     6.031634E-01
   -2.950000E+00     5.355383E-01
   -2.900000E+00     4.715454E-01
   -2.850000E+00     4.138760E-01
   -2.800000E+00     3.649461E-01
   -2.750000E+00     3.268514E-01
   -2.700000E+00     3.013487E-01
   -2.650000E+00     2.898492E-01
   -2.600000E+00     2.934051E-01
   -2.550000E+00     3.126739E-01
   -2.500000E+00     3.478518E-01
   -2.450000E+00     3.985739E-01
   -2.400000E+00     4.637959E-01
   -2.350000E+00     5.416795E-01
   -2.300000E+00     6.295118E-01
   -2.250000E+00     7.236950E-01
   -2.200000E+00     8.198323E-01
   -2.150000E+00     9.129281E-01
   -2.100000E+00     9.977004E-01
   -2.050000E+00     1.068983E+00
   -2.000000E+00     1.122173E+00
   -1.950000E+00     1.153677E+00
   -1.900000E+00     1.161276E+00
   -1.850000E+00     1.144377E+00
   -1.800000E+00     1.104095E+00
   -1.750000E+00     1.043161E+00
   -1.700000E+00     9.656726E-01
   -1.650000E+00     8.767133E-01
   -1.600000E+00     7.819159E-01
   -1.550000E+00     6.870187E-01
   -1.500000E+00     5.974764E-01
   -1.450000E+00     5.181647E-01
   -1.400000E+00     4.531907E-01
   -1.350000E+00     4.058037E-01
   -1.300000E+00     3.783726E-01
   -1.250000E+00     3.723937E-01
   -1.200000E+00     3.884887E-01
   -1.150000E+00     4.263687E-01
   -1.100000E+00     4.847581E-01
   -1.050000E+00     5.612989E-01
   -1.000000E+00     6.524748E-01
   -9.500000E-01     7.536068E-01
   -9.000000E-01     8.589702E-01
   -8.500000E-01     9.620667E-01
   -8.000000E-01     1.056056E+00
   -7.500000E-01     1.134318E+00
   -7.000000E-01     1.191073E+00
   -6.500000E-01     1.221984E+00
   -6.000000E-01     1.224638E+00
   -5.500000E-01     1.198825E+00
   -5.000000E-01     1.146570E+00
   -4.500000E-01     1.071912E+00
   -4.000000E-01     9.804678E-01
   -3.500000E-01     8.788591E-01
   -3.000000E-01     7.740882E-01
   -2.500000E-01     6.729612E-01
   -2.000000E-01     5.816237E-01
   -1.500000E-01     5.052464E-01
   -1.000000E-01     4.478603E-01
   -5.000000E-02     4.123099E-01
    0.000000E+00     4.002751E-01
    5.000000E-02     4.123099E-01
    1.000000E-01     4.478603E-01
    1.500000E-01     5.052464E-01
    2.000000E-01     5.816237E-01
    2.500000E-01     6.729612E-01
    3.000000E-01     7.740882E-01
    3.500000E-01     8.788591E-01
    4.000000E-01     9.804678E-01
    4.500000E-01     1.071912E+00
    5.000000E-01     1.146570E+00
    5.500000E-01     1.198825E+00
    6.000000E-01     1.224638E+00
    6.500000E-01     1.221984E+00
    7.000000E-01     1.191073E+00
    7.500000E-01     1.134318E+00
    8.000000E-01     1.056056E+00
    8.500000E-01     9.620667E-01
    9.000000E-01     8.589702E-01
    9.500000E-01     7.536068E-01
    1.000000E+00     6.524748E-01
    1.050000E+00     5.612989E-01
    1.100000E+00     4.847581E-01
    1.150000E+00     4.263687E-01
    1.200000E+00     3.884887E-01
    1.250000E+00     3.723937E-01
    1.300000E+00     3.783726E-01
    1.350000E+00     4.058037E-01
    1.400000E+00     4.531907E-01
    1.450000E+00     5.181647E-01
    1.500000E+00     5.974765E-01
    1.550000E+00     6.870187E-01
    1.600000E+00     7.819159E-01
    1.650000E+00     8.767133E-01
    1.700000E+00     9.656726E-01
    1.750000E+00     1.043161E+00
    1.800000E+00     1.104095E+00
    1.850000E+00     1.144377E+00
    1.900000E+00     1.161276E+00
    1.950000E+00     1.153677E+00
    2.000000E+00     1.122173E+00
    2.050000E+00     1.068983E+00
    2.100000E+00     9.977004E-01
    2.150000E+00     9.129281E-01
    2.200000E+00     8.198323E-01
    2.250000E+00     7.236950E-01
    2.300000E+00     6.295118E-01
    2.350000E+00     5.416795E-01
    2.400000E+00     4.637959E-01
    2.450000E+00     3.985739E-01
    2.500000E+00     3.478518E-01
    2.550000E+00     3.126739E-01
    2.600000E+00     2.934051E-01
    2.650000E+00     2.898492E-01
    2.700000E+00     3.013487E-01
    2.750000E+00     3.268514E-01
    2.800000E+00     3.649461E-01
    2.850000E+00     4.138760E-01
    2.900000E+00     4.715454E-01
    2.950000E+00     5.355383E-01
    3.000000E+00     6.031634E-01
    3.050000E+00     6.715331E-01
    3.100000E+00     7.376789E-01
    3.150000E+00     7.986943E-01
    3.200000E+00     8.518916E-01
    3.250000E+00     8.949562E-01
    3.300000E+00     9.260793E-01
    3.350000E+00     9.440553E-01
    3.400000E+00     9.483322E-01
    3.450000E+00     9.390138E-01
    3.500000E+00     9.168130E-01
    3.550000E+00     8.829654E-01
    3.600000E+00     8.391146E-01
    3.650000E+00     7.871809E-01
    3.700000E+00     7.292267E-01
    3.750000E+00     6.673302E-01
    3.800000E+00     6.034758E-01
    3.850000E+00     5.394668E-01
    3.900000E+00     4.768636E-01
    3.950000E+00     4.169463E-01
    4.000000E+00     3.607013E-01
    4.050000E+00     3.088270E-01
    4.100000E+00     2.617546E-01
    4.150000E+00     2.196794E-01
    4.200000E+00     1.825993E-01
    4.250000E+00     1.503541E-01
    4.300000E+00     1.226661E-01
    4.350000E+00     9.917608E-02
    4.400000E+00     7.947639E-02
    4.450000E+00     6.313765E-02
    4.500000E+00     4.973058E-02
    4.550000E+00     3.884229E-02
    4.600000E+00     3.008775E-02
    4.650000E+00     2.311702E-02
    4.700000E+00     1.761900E-02
    4.750000E+00     1.332249E-02
    4.800000E+00     9.995124E-03
    4.850000E+00     7.440995E-03
    4.900000E+00     5.497343E-03
    4.950000E+00     4.030792E-03
    5.000000E+00     2.933447E-03
    5.050000E+00     2.119088E-03
    5.100000E+00     1.519616E-03
    5.150000E+00     1.081836E-03
    5.200000E+00     7.646451E-04
    5.250000E+00     5.366057E-04
    5.300000E+00     3.739147E-04
    5.350000E+00     2.587236E-04
    5.400000E+00     1.777748E-04
    5.450000E+00     1.213113E-04
    5.500000E+00     8.221727E-05
    5.550000E+00     5.534878E-05
    5.600000E+00     3.701989E-05
    5.650000E+00     2.461237E-05
    5.700000E+00     1.628303E-05
    5.750000E+00     1.074658E-05
    5.800000E+00     7.116863E-06
    5.850000E+00     4.792068E-06
    5.900000E+00     3.374019E-06
    5.950000E+00     2.612818E-06
