

# V0=-20.0, s=0.5 
#   x [ho units]    Density [ho units]
   -6.000000E+00     4.124480E-23
   -5.950000E+00     8.842163E-22
   -5.900000E+00     3.788877E-21
   -5.850000E+00     1.003065E-20
   -5.800000E+00     2.230984E-20
   -5.750000E+00     4.585255E-20
   -5.700000E+00     9.054346E-20
   -5.650000E+00     1.748513E-19
   -5.600000E+00     3.330918E-19
   -5.550000E+00     6.287067E-19
   -5.500000E+00     1.178453E-18
   -5.450000E+00     2.196308E-18
   -5.400000E+00     4.072460E-18
   -5.350000E+00     7.515216E-18
   -5.300000E+00     1.380459E-17
   -5.250000E+00     2.524353E-17
   -5.200000E+00     4.595693E-17
   -5.150000E+00     8.329922E-17
   -5.100000E+00     1.503244E-16
   -5.050000E+00     2.700995E-16
   -5.000000E+00     4.832043E-16
   -4.950000E+00     8.607089E-16
   -4.900000E+00     1.526530E-15
   -4.850000E+00     2.695771E-15
   -4.800000E+00     4.740172E-15
   -4.750000E+00     8.299341E-15
   -4.700000E+00     1.446893E-14
   -4.650000E+00     2.511759E-14
   -4.600000E+00     4.341835E-14
   -4.550000E+00     7.473565E-14
   -4.500000E+00     1.280994E-13
   -4.450000E+00     2.186434E-13
   -4.400000E+00     3.716221E-13
   -4.350000E+00     6.289970E-13
   -4.300000E+00     1.060189E-12
   -4.250000E+00     1.779558E-12
   -4.200000E+00     2.974685E-12
   -4.150000E+00     4.951953E-12
   -4.100000E+00     8.209659E-12
   -4.050000E+00     1.355481E-11
   -4.000000E+00     2.228891E-11
   -3.950000E+00     3.650209E-11
   -3.900000E+00     5.953710E-11
   -3.850000E+00     9.671771E-11
   -3.800000E+00     1.564877E-10
   -3.750000E+00     2.521843E-10
   -3.700000E+00     4.047880E-10
   -3.650000E+00     6.471677E-10
   -3.600000E+00     1.030609E-09
   -3.550000E+00     1.634812E-09
   -3.500000E+00     2.583134E-09
   -3.450000E+00     4.065746E-09
   -3.400000E+00     6.374659E-09
   -3.350000E+00     9.956495E-09
   -3.300000E+00     1.549168E-08
   -3.250000E+00     2.401279E-08
   -3.200000E+00     3.708081E-08
   -3.150000E+00     5.704643E-08
   -3.100000E+00     8.743619E-08
   -3.050000E+00     1.335206E-07
   -3.000000E+00     2.031471E-07
   -2.950000E+00     3.079568E-07
   -2.900000E+00     4.651549E-07
   -2.850000E+00     7.000773E-07
   -2.800000E+00     1.049898E-06
   -2.750000E+00     1.568967E-06
   -2.700000E+00     2.336461E-06
   -2.650000E+00     3.467326E-06
   -2.600000E+00     5.127850E-06
   -2.550000E+00     7.557780E-06
   -2.500000E+00     1.110158E-05
   -2.450000E+00     1.625254E-05
   -2.400000E+00     2.371465E-05
   -2.350000E+00     3.448933E-05
   -2.300000E+00     4.999640E-05
   -2.250000E+00     7.224216E-05
   -2.200000E+00     1.040524E-04
   -2.150000E+00     1.493938E-04
   -2.100000E+00     2.138158E-04
   -2.050000E+00     3.050550E-04
   -2.000000E+00     4.338586E-04
   -1.950000E+00     6.150999E-04
   -1.900000E+00     8.692792E-04
   -1.850000E+00     1.224531E-03
   -1.800000E+00     1.719283E-03
   -1.750000E+00     2.405747E-03
   -1.700000E+00     3.354446E-03
   -1.650000E+00     4.659992E-03
   -1.600000E+00     6.448349E-03
   -1.550000E+00     8.885732E-03
   -1.500000E+00     1.218923E-02
   -1.450000E+00     1.663902E-02
   -1.400000E+00     2.259164E-02
   -1.350000E+00     3.049352E-02
   -1.300000E+00     4.089292E-02
   -1.250000E+00     5.444806E-02
   -1.200000E+00     7.192787E-02
   -1.150000E+00     9.420147E-02
   -1.100000E+00     1.222115E-01
   -1.050000E+00     1.569276E-01
   -1.000000E+00     1.992763E-01
   -9.500000E-01     2.500497E-01
   -9.000000E-01     3.097947E-01
   -8.500000E-01     3.786970E-01
   -8.000000E-01     4.564733E-01
   -7.500000E-01     5.422939E-01
   -7.000000E-01     6.347571E-01
   -6.500000E-01     7.319306E-01
   -6.000000E-01     8.314675E-01
   -5.500000E-01     9.307867E-01
   -5.000000E-01     1.027293E+00
   -4.500000E-01     1.118598E+00
   -4.000000E-01     1.202707E+00
   -3.500000E-01     1.278123E+00
   -3.000000E-01     1.343876E+00
   -2.500000E-01     1.399456E+00
   -2.000000E-01     1.444702E+00
   -1.500000E-01     1.479664E+00
   -1.000000E-01     1.504484E+00
   -5.000000E-02     1.519308E+00
    0.000000E+00     1.524237E+00
    5.000000E-02     1.519308E+00
    1.000000E-01     1.504484E+00
    1.500000E-01     1.479664E+00
    2.000000E-01     1.444702E+00
    2.500000E-01     1.399456E+00
    3.000000E-01     1.343876E+00
    3.500000E-01     1.278123E+00
    4.000000E-01     1.202707E+00
    4.500000E-01     1.118598E+00
    5.000000E-01     1.027293E+00
    5.500000E-01     9.307867E-01
    6.000000E-01     8.314675E-01
    6.500000E-01     7.319306E-01
    7.000000E-01     6.347571E-01
    7.500000E-01     5.422939E-01
    8.000000E-01     4.564733E-01
    8.500000E-01     3.786970E-01
    9.000000E-01     3.097947E-01
    9.500000E-01     2.500497E-01
    1.000000E+00     1.992763E-01
    1.050000E+00     1.569276E-01
    1.100000E+00     1.222115E-01
    1.150000E+00     9.420147E-02
    1.200000E+00     7.192787E-02
    1.250000E+00     5.444806E-02
    1.300000E+00     4.089292E-02
    1.350000E+00     3.049352E-02
    1.400000E+00     2.259164E-02
    1.450000E+00     1.663902E-02
    1.500000E+00     1.218923E-02
    1.550000E+00     8.885732E-03
    1.600000E+00     6.448349E-03
    1.650000E+00     4.659992E-03
    1.700000E+00     3.354446E-03
    1.750000E+00     2.405747E-03
    1.800000E+00     1.719283E-03
    1.850000E+00     1.224531E-03
    1.900000E+00     8.692792E-04
    1.950000E+00     6.150999E-04
    2.000000E+00     4.338586E-04
    2.050000E+00     3.050550E-04
    2.100000E+00     2.138158E-04
    2.150000E+00     1.493938E-04
    2.200000E+00     1.040524E-04
    2.250000E+00     7.224216E-05
    2.300000E+00     4.999640E-05
    2.350000E+00     3.448933E-05
    2.400000E+00     2.371465E-05
    2.450000E+00     1.625254E-05
    2.500000E+00     1.110158E-05
    2.550000E+00     7.557780E-06
    2.600000E+00     5.127850E-06
    2.650000E+00     3.467326E-06
    2.700000E+00     2.336461E-06
    2.750000E+00     1.568967E-06
    2.800000E+00     1.049898E-06
    2.850000E+00     7.000773E-07
    2.900000E+00     4.651549E-07
    2.950000E+00     3.079568E-07
    3.000000E+00     2.031471E-07
    3.050000E+00     1.335206E-07
    3.100000E+00     8.743619E-08
    3.150000E+00     5.704643E-08
    3.200000E+00     3.708081E-08
    3.250000E+00     2.401279E-08
    3.300000E+00     1.549168E-08
    3.350000E+00     9.956495E-09
    3.400000E+00     6.374659E-09
    3.450000E+00     4.065746E-09
    3.500000E+00     2.583134E-09
    3.550000E+00     1.634812E-09
    3.600000E+00     1.030609E-09
    3.650000E+00     6.471677E-10
    3.700000E+00     4.047880E-10
    3.750000E+00     2.521843E-10
    3.800000E+00     1.564877E-10
    3.850000E+00     9.671771E-11
    3.900000E+00     5.953710E-11
    3.950000E+00     3.650209E-11
    4.000000E+00     2.228891E-11
    4.050000E+00     1.355481E-11
    4.100000E+00     8.209659E-12
    4.150000E+00     4.951953E-12
    4.200000E+00     2.974685E-12
    4.250000E+00     1.779558E-12
    4.300000E+00     1.060189E-12
    4.350000E+00     6.289970E-13
    4.400000E+00     3.716221E-13
    4.450000E+00     2.186434E-13
    4.500000E+00     1.280994E-13
    4.550000E+00     7.473565E-14
    4.600000E+00     4.341835E-14
    4.650000E+00     2.511759E-14
    4.700000E+00     1.446893E-14
    4.750000E+00     8.299341E-15
    4.800000E+00     4.740172E-15
    4.850000E+00     2.695771E-15
    4.900000E+00     1.526530E-15
    4.950000E+00     8.607090E-16
    5.000000E+00     4.832043E-16
    5.050000E+00     2.700996E-16
    5.100000E+00     1.503244E-16
    5.150000E+00     8.329922E-17
    5.200000E+00     4.595694E-17
    5.250000E+00     2.524353E-17
    5.300000E+00     1.380459E-17
    5.350000E+00     7.515218E-18
    5.400000E+00     4.072462E-18
    5.450000E+00     2.196310E-18
    5.500000E+00     1.178455E-18
    5.550000E+00     6.287086E-19
    5.600000E+00     3.330937E-19
    5.650000E+00     1.748532E-19
    5.700000E+00     9.054532E-20
    5.750000E+00     4.585437E-20
    5.800000E+00     2.231157E-20
    5.850000E+00     1.003225E-20
    5.900000E+00     3.790222E-21
    5.950000E+00     8.851118E-22
