

# V0=-20.0, s=0.9999999999999999 
#   x [ho units]    Density [ho units]
   -6.000000E+00     1.418817E-20
   -5.950000E+00     1.611666E-20
   -5.900000E+00     2.289580E-20
   -5.850000E+00     3.805358E-20
   -5.800000E+00     6.943863E-20
   -5.750000E+00     1.331290E-19
   -5.700000E+00     2.613889E-19
   -5.650000E+00     5.184530E-19
   -5.600000E+00     1.031509E-18
   -5.550000E+00     2.051350E-18
   -5.500000E+00     4.070380E-18
   -5.450000E+00     8.051486E-18
   -5.400000E+00     1.586996E-17
   -5.350000E+00     3.116305E-17
   -5.300000E+00     6.095682E-17
   -5.250000E+00     1.187689E-16
   -5.200000E+00     2.305012E-16
   -5.150000E+00     4.455877E-16
   -5.100000E+00     8.579961E-16
   -5.050000E+00     1.645634E-15
   -5.000000E+00     3.143994E-15
   -4.950000E+00     5.983232E-15
   -4.900000E+00     1.134230E-14
   -4.850000E+00     2.141824E-14
   -4.800000E+00     4.028921E-14
   -4.750000E+00     7.549560E-14
   -4.700000E+00     1.409250E-13
   -4.650000E+00     2.620551E-13
   -4.600000E+00     4.854457E-13
   -4.550000E+00     8.958532E-13
   -4.500000E+00     1.646969E-12
   -4.450000E+00     3.016409E-12
   -4.400000E+00     5.503700E-12
   -4.350000E+00     1.000419E-11
   -4.300000E+00     1.811648E-11
   -4.250000E+00     3.268378E-11
   -4.200000E+00     5.874318E-11
   -4.150000E+00     1.051839E-10
   -4.100000E+00     1.876316E-10
   -4.050000E+00     3.334457E-10
   -4.000000E+00     5.903399E-10
   -3.950000E+00     1.041193E-09
   -3.900000E+00     1.829385E-09
   -3.850000E+00     3.201945E-09
   -3.800000E+00     5.582716E-09
   -3.750000E+00     9.695852E-09
   -3.700000E+00     1.677328E-08
   -3.650000E+00     2.890161E-08
   -3.600000E+00     4.959919E-08
   -3.550000E+00     8.477137E-08
   -3.500000E+00     1.442831E-07
   -3.450000E+00     2.445341E-07
   -3.400000E+00     4.126500E-07
   -3.350000E+00     6.932658E-07
   -3.300000E+00     1.159431E-06
   -3.250000E+00     1.930031E-06
   -3.200000E+00     3.197411E-06
   -3.150000E+00     5.270883E-06
   -3.100000E+00     8.644667E-06
   -3.050000E+00     1.410316E-05
   -3.000000E+00     2.288256E-05
   -2.950000E+00     3.691668E-05
   -2.900000E+00     5.920709E-05
   -2.850000E+00     9.437431E-05
   -2.800000E+00     1.494691E-04
   -2.750000E+00     2.351517E-04
   -2.700000E+00     3.673818E-04
   -2.650000E+00     5.698049E-04
   -2.600000E+00     8.770660E-04
   -2.550000E+00     1.339328E-03
   -2.500000E+00     2.028306E-03
   -2.450000E+00     3.045143E-03
   -2.400000E+00     4.530414E-03
   -2.350000E+00     6.676442E-03
   -2.300000E+00     9.741888E-03
   -2.250000E+00     1.406822E-02
   -2.200000E+00     2.009711E-02
   -2.150000E+00     2.838712E-02
   -2.100000E+00     3.962701E-02
   -2.050000E+00     5.464217E-02
   -2.000000E+00     7.438957E-02
   -1.950000E+00     9.993595E-02
   -1.900000E+00     1.324140E-01
   -1.850000E+00     1.729526E-01
   -1.800000E+00     2.225780E-01
   -1.750000E+00     2.820903E-01
   -1.700000E+00     3.519200E-01
   -1.650000E+00     4.319819E-01
   -1.600000E+00     5.215461E-01
   -1.550000E+00     6.191524E-01
   -1.500000E+00     7.225976E-01
   -1.450000E+00     8.290185E-01
   -1.400000E+00     9.350849E-01
   -1.350000E+00     1.037297E+00
   -1.300000E+00     1.132360E+00
   -1.250000E+00     1.217586E+00
   -1.200000E+00     1.291253E+00
   -1.150000E+00     1.352852E+00
   -1.100000E+00     1.403145E+00
   -1.050000E+00     1.444022E+00
   -1.000000E+00     1.478149E+00
   -9.500000E-01     1.508473E+00
   -9.000000E-01     1.537681E+00
   -8.500000E-01     1.567735E+00
   -8.000000E-01     1.599577E+00
   -7.500000E-01     1.633086E+00
   -7.000000E-01     1.667269E+00
   -6.500000E-01     1.700639E+00
   -6.000000E-01     1.731664E+00
   -5.500000E-01     1.759168E+00
   -5.000000E-01     1.782572E+00
   -4.500000E-01     1.801946E+00
   -4.000000E-01     1.817866E+00
   -3.500000E-01     1.831159E+00
   -3.000000E-01     1.842619E+00
   -2.500000E-01     1.852782E+00
   -2.000000E-01     1.861820E+00
   -1.500000E-01     1.869557E+00
   -1.000000E-01     1.875589E+00
   -5.000000E-02     1.879449E+00
    0.000000E+00     1.880781E+00
    5.000000E-02     1.879449E+00
    1.000000E-01     1.875589E+00
    1.500000E-01     1.869557E+00
    2.000000E-01     1.861820E+00
    2.500000E-01     1.852782E+00
    3.000000E-01     1.842619E+00
    3.500000E-01     1.831159E+00
    4.000000E-01     1.817866E+00
    4.500000E-01     1.801946E+00
    5.000000E-01     1.782572E+00
    5.500000E-01     1.759168E+00
    6.000000E-01     1.731664E+00
    6.500000E-01     1.700639E+00
    7.000000E-01     1.667269E+00
    7.500000E-01     1.633086E+00
    8.000000E-01     1.599577E+00
    8.500000E-01     1.567735E+00
    9.000000E-01     1.537681E+00
    9.500000E-01     1.508473E+00
    1.000000E+00     1.478149E+00
    1.050000E+00     1.444022E+00
    1.100000E+00     1.403145E+00
    1.150000E+00     1.352852E+00
    1.200000E+00     1.291253E+00
    1.250000E+00     1.217586E+00
    1.300000E+00     1.132360E+00
    1.350000E+00     1.037297E+00
    1.400000E+00     9.350849E-01
    1.450000E+00     8.290185E-01
    1.500000E+00     7.225976E-01
    1.550000E+00     6.191524E-01
    1.600000E+00     5.215461E-01
    1.650000E+00     4.319819E-01
    1.700000E+00     3.519200E-01
    1.750000E+00     2.820903E-01
    1.800000E+00     2.225780E-01
    1.850000E+00     1.729526E-01
    1.900000E+00     1.324140E-01
    1.950000E+00     9.993595E-02
    2.000000E+00     7.438957E-02
    2.050000E+00     5.464217E-02
    2.100000E+00     3.962701E-02
    2.150000E+00     2.838712E-02
    2.200000E+00     2.009711E-02
    2.250000E+00     1.406822E-02
    2.300000E+00     9.741888E-03
    2.350000E+00     6.676442E-03
    2.400000E+00     4.530414E-03
    2.450000E+00     3.045143E-03
    2.500000E+00     2.028306E-03
    2.550000E+00     1.339328E-03
    2.600000E+00     8.770660E-04
    2.650000E+00     5.698049E-04
    2.700000E+00     3.673818E-04
    2.750000E+00     2.351517E-04
    2.800000E+00     1.494691E-04
    2.850000E+00     9.437431E-05
    2.900000E+00     5.920709E-05
    2.950000E+00     3.691668E-05
    3.000000E+00     2.288256E-05
    3.050000E+00     1.410316E-05
    3.100000E+00     8.644667E-06
    3.150000E+00     5.270883E-06
    3.200000E+00     3.197411E-06
    3.250000E+00     1.930031E-06
    3.300000E+00     1.159431E-06
    3.350000E+00     6.932658E-07
    3.400000E+00     4.126500E-07
    3.450000E+00     2.445341E-07
    3.500000E+00     1.442831E-07
    3.550000E+00     8.477137E-08
    3.600000E+00     4.959919E-08
    3.650000E+00     2.890161E-08
    3.700000E+00     1.677328E-08
    3.750000E+00     9.695852E-09
    3.800000E+00     5.582716E-09
    3.850000E+00     3.201945E-09
    3.900000E+00     1.829385E-09
    3.950000E+00     1.041193E-09
    4.000000E+00     5.903399E-10
    4.050000E+00     3.334457E-10
    4.100000E+00     1.876316E-10
    4.150000E+00     1.051839E-10
    4.200000E+00     5.874318E-11
    4.250000E+00     3.268378E-11
    4.300000E+00     1.811648E-11
    4.350000E+00     1.000419E-11
    4.400000E+00     5.503700E-12
    4.450000E+00     3.016409E-12
    4.500000E+00     1.646969E-12
    4.550000E+00     8.958532E-13
    4.600000E+00     4.854457E-13
    4.650000E+00     2.620551E-13
    4.700000E+00     1.409250E-13
    4.750000E+00     7.549560E-14
    4.800000E+00     4.028921E-14
    4.850000E+00     2.141824E-14
    4.900000E+00     1.134230E-14
    4.950000E+00     5.983232E-15
    5.000000E+00     3.143994E-15
    5.050000E+00     1.645634E-15
    5.100000E+00     8.579961E-16
    5.150000E+00     4.455877E-16
    5.200000E+00     2.305012E-16
    5.250000E+00     1.187689E-16
    5.300000E+00     6.095682E-17
    5.350000E+00     3.116305E-17
    5.400000E+00     1.586996E-17
    5.450000E+00     8.051485E-18
    5.500000E+00     4.070379E-18
    5.550000E+00     2.051348E-18
    5.600000E+00     1.031508E-18
    5.650000E+00     5.184517E-19
    5.700000E+00     2.613876E-19
    5.750000E+00     1.331277E-19
    5.800000E+00     6.943742E-20
    5.850000E+00     3.805244E-20
    5.900000E+00     2.289482E-20
    5.950000E+00     1.611599E-20
